Time (s),E_exp_in (s-1),E_exp_out (s-1),F_exp_in (1),F_exp_out (1),E_sim_out (s-1),F_sim_out (1)
0.01622786991281444,0.236652141003131,0.00027314430842622083,0.2614105144250021,0.0026553346427421634,0.0,0.0
0.21948111066171094,0.23622253862713535,0.0002713154998311313,0.30946716997647605,0.0027106662529850782,1.5583103309588402e-19,1.5836581242993487e-20
0.42273435141060745,0.2357943130417065,0.00026948918962884386,0.3574366473713677,0.0027656264058575483,8.224069918146875e-11,8.357844346717483e-12
0.6259875921595004,0.23277089551264157,0.0002650621379943506,0.40505534594179377,0.0028199510507005672,8.742062585020092e-08,8.900978444836651e-09
0.8292408329083969,0.19993065829295073,0.00023080405312427696,0.4490293424858286,0.0028703442558619036,2.866882508055386e-06,3.0913682150530246e-07
1.0324940736572934,0.166268611520882,0.00019933316784977094,0.4862449366605991,0.0029140576479267533,2.2767689289981566e-05,2.914291718085941e-06
1.2357473144061863,0.12390644307300774,0.0001975055918077136,0.5157344467759466,0.002954387029904331,8.857447224501913e-05,1.4229619300073751e-05
1.4390005551550828,0.08149693980900218,0.00019567583362456396,0.5366088983917241,0.0029943447293650214,0.00022933202864945887,4.653738258104606e-05
1.6422537959039794,0.040837064427633823,0.00019665608163550545,0.5490412897991669,0.0030342160959779367,0.0004611378163935288,0.00011670749940323387
1.8455070366528759,0.01951821117463123,0.00022815333875671296,0.5551749924803935,0.003077388041675626,0.0007847024271823757,0.00024331803288433245
2.048760277401769,0.0,0.0002815184250935288,0.557158562317826,0.003129184260536009,0.0011895916038822962,0.0004439588628868775
2.2520135181506653,0.0,0.0005734390134295486,0.557158562317826,0.0032160706955771047,0.0016596938973720077,0.0007335221188612682
2.455266758899562,0.0,0.0008659959560143898,0.557158562317826,0.0033623556067704894,0.0021773780056270303,0.0011234707684968132
2.6585199996484548,0.0,0.0012145680267470766,0.557158562317826,0.0035737962928113353,0.0027260136471956406,0.0016217858905454524
2.8617732403973513,0.0,0.0021789261727276597,0.557158562317826,0.003918665639564246,0.003291174399535436,0.0022332923758922596
3.0650264811462478,7.406035859770507e-06,0.003146511890249771,0.5571593149682208,0.00445987191191809,0.0038609986238306725,0.0029601435485902567
3.2682797218951407,9.477923892527996e-05,0.004175373254834381,0.5571696997123492,0.0052039703539828565,0.004426151880461612,0.003802338646875871
3.471532962644037,0.00018143629674425543,0.0051959083717037155,0.5571977705637342,0.006156342034265086,0.004979565807950432,0.004758209947745355
3.6747862033929337,0.00026737253212322785,0.006126751520782109,0.5572433814882062,0.007307025692787733,0.005516054489540521,0.005824844367312822
3.87803944414183,0.00035265659054239056,0.0070583920315895905,0.5573063929524764,0.008646987271167215,0.006031963199764413,0.006998430377101227
4.081292684890723,0.0004296939684389666,0.007949641419086004,0.5573859005957338,0.010172202989226019,0.006524872478938916,0.008274539149725115
4.28454592563962,0.0004296939684389666,0.008438328548168715,0.5574732372873492,0.011837656991796073,0.006993334949170173,0.009648348884164604
4.487799166388516,0.0004296939684389666,0.008925613418191206,0.5575605739789646,0.013602295730215283,0.007436636723185183,0.011114818137325103
4.691052407137409,0.0004296939684389666,0.00935985795430281,0.5576479106705801,0.015460586387755541,0.00785460987934779,0.012668815850852767
4.894305647886306,0.0004296939684389666,0.009210796551171367,0.5577352473621955,0.017347859243288404,0.008247484064593809,0.014305217239327421
5.097558888635202,0.0004290627057883317,0.009057417211850466,0.5578225199007212,0.019204396068302293,0.008615796009231505,0.016018975401658066
5.300812129384095,0.0004218121945080699,0.008859224616555167,0.5579089914411998,0.0210252038257826,0.008960300212953656,0.01780517466009482
5.504065370132992,0.0004076033890382797,0.008678425181746198,0.5579932821438415,0.02280749590409459,0.009281896224994668,0.019659067432290307
5.707318610881888,0.0003216747687449865,0.008676595471110405,0.5580673962183299,0.024571227999573158,0.009581579246321,0.02157609869295642
5.910571851630785,0.00023647474415121054,0.00867476567195981,0.5581241190669892,0.026334588191439908,0.009860376909064071,0.023551918990496405
6.1138250923796775,0.000166407184524518,0.008686106083670478,0.5581650625958104,0.028098914914718796,0.010119341953987988,0.025582390294579965
6.317078333128574,0.00024286620305274958,0.008831445973768578,0.5582066556669991,0.029879164527549792,0.010359537466352957,0.027663589599125054
6.5203315738774705,0.0003118749350252066,0.008976861871951803,0.5582630321340446,0.031688962668498126,0.010581989751831547,0.029791806235788667
6.7235848146263635,0.0003118749350252066,0.009122309295226628,0.5583264217252968,0.03352832026579709,0.01078772917883267,0.0319635385490639
6.92683805537526,0.0003118749350252066,0.009267655745712837,0.558389811316549,0.03539723026171202,0.010977741398794046,0.03417548976472759
7.1300912961241565,0.00030450568822049367,0.00940861677682762,0.5584524519961537,0.03729523671936998,0.011152978176353984,0.03642456000160453
7.333344536873049,0.0002243779231333049,0.00950495932503952,0.558506200650147,0.03921735953779764,0.011314346393756839,0.038707838266520654
7.536597777621946,0.0001523152093053141,0.009592151330296653,0.558544482700115,0.04115813435261632,0.011462709994220548,0.04102259352930904
7.739851018370842,0.0001523152093053141,0.00959032217687647,0.5585754412600217,0.04310758430557271,0.011598884327502586,0.043366265420672324
7.943104259119739,0.0001523152093053141,0.009588493406064382,0.5586063998199283,0.045056662516051796,0.011723630238038041,0.045736453754602065
8.146357499868632,0.00014506255600334894,0.009591313650231957,0.5586366213171912,0.047005841486617156,0.011837688352257857,0.048130910934499456
8.349610740617528,6.860085158032802e-05,0.009638545849053076,0.5586583352072015,0.04896010711780498,0.011941726204767104,0.05054753247041286
8.552863981366425,0.0,0.009685787313111083,0.5586653068799025,0.050923973788065596,0.012036404154387883,0.052984348821711734
8.756117222115318,0.0,0.009732996473174991,0.5586653068799025,0.05289743915604795,0.012122322681802423,0.0554395185826232
8.959370462864214,0.0,0.009780267077421427,0.5586653068799025,0.05488050618317097,0.01220005543202492,0.05791131966980092
9.16262370361311,0.0,0.009827502157922816,0.5586653068799025,0.056873177503641084,0.012270141466219135,0.06039814308046677
9.365876944362007,0.0,0.009874644688510547,0.5586653068799025,0.0588754401017652,0.012333084556184159,0.0628984857914323
9.5691301851109,0.0,0.009917241385144887,0.5586653068799025,0.06088682259426688,0.012389354543335784,0.06541094372452959
9.772383425859797,0.0,0.009915414172766115,0.5586653068799025,0.06290234835166789,0.012439393375540758,0.06793420546365413
9.975636666608693,2.0936200226366124e-05,0.009918156299015931,0.558667434555175,0.06491796708867355,0.012483612468300393,0.07046704631713632
10.178889907357586,0.0002457357243585785,0.009960809478222072,0.5586945355216193,0.06693819919715353,0.01252239552841641,0.07300832239889904
10.382143148106483,0.00046981262902523,0.009958979198639863,0.5587672542824882,0.06896257999895622,0.012556108043815994,0.07555696596099355
10.58539638885538,0.0007087596779022454,0.009957148176006557,0.5588870286029082,0.07098658871498857,0.012585083104653557,0.0781119802496005
10.788649629604272,0.001093093947011201,0.009955319799623247,0.5590701448972176,0.07301022553866622,0.01260963374129983,0.08067243417394589
10.991902870353169,0.0014770699462943908,0.009953489623534968,0.5593313419675027,0.07503349055602077,0.012630056508428343,0.08323745859332367
11.195156111102065,0.0018603189502133305,0.009951659538144524,0.55967050952193,0.07705638359337154,0.012646629125853714,0.08580624272860313
11.398409351850962,0.002242802827800254,0.009949830062832935,0.5600874959212143,0.0790789047219361,0.01265960962915185,0.08837803024766323
11.601662592599855,0.002624535987480667,0.009952791011414325,0.5605821471152287,0.08110154083830508,0.012669240805798839,0.0909521157153371
11.804915833348751,0.0030047622541562475,0.009999941783310227,0.5611542336706061,0.08312926963946736,0.012675744621799365,0.09352784092778355
12.008169074097648,0.0033633878139402514,0.010037702437627267,0.5618014072400641,0.08516562770190683,0.01267933764778179,0.09610459224815718
12.21142231484654,0.00351820302695668,0.00998679055247919,0.5625007600600243,0.08720064924920315,0.012680222268407253,0.09868179861662275
12.414675555595437,0.003673008666779157,0.009935881759418157,0.5632315786008558,0.08922532310508888,0.012678575741560208,0.10125892755513403
12.617928796344334,0.0038118620759550704,0.00988496104563173,0.5639922407183795,0.09123964837233929,0.01267457268056923,0.10383548234512682
12.821182037093227,0.0038046101529288453,0.009834020975087596,0.5647662770501768,0.09324362187232947,0.012668378599336071,0.10641100083401785
13.024435277842123,0.0037973651028725837,0.009783131684310975,0.5655388401035941,0.09523724679847377,0.012660144053605613,0.10898505299031397
13.22768851859102,0.0037901167857041585,0.00973221974904119,0.5663099302450825,0.09722052601006499,0.012650004482547378,0.11155723784721848
13.430941759339916,0.003782869332591037,0.009681314299526008,0.5670795472304274,0.09919345786494516,0.01263809457694391,0.11412718189032885
13.634195000088809,0.003775622236912015,0.00963041166652468,0.5678476911837648,0.10115604330847233,0.012624537723458727,0.1166945378327811
13.837448240837706,0.0037683857714238675,0.00957958097108981,0.5686143632217298,0.10310828993765113,0.012609445776449301,0.11925898229446134
14.040701481586602,0.0037611383744331818,0.009533626155433256,0.569379563313701,0.10505070058243648,0.012592927011044572,0.1218202142662713
14.243954722335495,0.00375388953916225,0.009531796675920006,0.5701432902025794,0.10698825507079673,0.012575081988835954,0.12437795396248282
14.447207963084395,0.0037466429670255223,0.009529967767491477,0.570905543972192,0.1089254377695545,0.012556003444469568,0.12693194124141122
14.650461203833288,0.0037394132348824243,0.009528143109353552,0.571666326563925,0.11086224916868974,0.012535778170497244,0.12948193420611395
14.853714444582181,0.0037321625322650435,0.00952631315870732,0.5724256375580118,0.11279868916228546,0.012514489821355876,0.13202770828160015
15.056967685331081,0.0037249078929003855,0.009519503845992263,0.5731834744232156,0.11473425117674331,0.012492216906621022,0.13456905537305947
15.260220926079974,0.003717660770420614,0.009468614720587382,0.5739398375233736,0.11666394949393408,0.012469025749256468,0.13710578210452276
15.463474166828867,0.0037269178743466716,0.009417717772382029,0.5746964048911531,0.11858330363646265,0.012444986474635296,0.13963770896680452
15.666727407577767,0.003881477213417228,0.009366888259602954,0.5754696203703962,0.12049231966255879,0.01242016321816671,0.1421646700951888
15.86998064832666,0.004035870533864904,0.009316112879554417,0.5762742336642817,0.12239100992678328,0.01239461443917312,0.14468651208384756
16.073233889075553,0.004174592740671783,0.009265199720331215,0.5771086352985814,0.12427936592843078,0.012368391125789635,0.14720309264972833
16.276487129824453,0.00416734015489515,0.009214285442141154,0.5779563977461483,0.12615737355175263,0.01234154691620187,0.149714280142598
16.479740370573346,0.004176376160782562,0.00916337172072132,0.5788043414366737,0.12802503273961457,0.01231413026389136,0.15221995328745422
16.68299361132224,0.0043311172200526035,0.009112483113051484,0.579668929236826,0.12988234610082489,0.012286183817970904,0.15472000006774378
16.88624685207114,0.004485431383096676,0.009061733557813673,0.5805649252747311,0.1317293303190379,0.012257748949128377,0.1572143170055618
17.089500092820032,0.004624262529520255,0.009015659556931142,0.5814907126797161,0.1335664746864697,0.012228865025041962,0.15970280882817042
17.292753333568925,0.004617003940939264,0.009013827616090842,0.5824298713590885,0.13539875053494838,0.012199568324075101,0.16218538795048362
17.496006574317825,0.004593572457386358,0.009011998843278218,0.583365911110151,0.1372306543574704,0.012169891551312878,0.16466197379797007
17.699259815066718,0.004424247936133456,0.00901016861957374,0.5842823617198882,0.13906218632854236,0.01213986686999571,0.1671324923884469
17.902513055815618,0.004254944570173106,0.009008339087373486,0.5851643987218834,0.14089334637099038,0.01210952407845074,0.1695968760366763
18.10576629656451,0.004118610040327882,0.00900650905793934,0.5860153747774695,0.1427241345045574,0.012078890345811857,0.17205506284683064
18.309019537313404,0.004273395256814535,0.00900467976558028,0.5868682259139825,0.1445545507536177,0.012047990989408555,0.17450699625710442
18.512272778062304,0.004395121412608722,0.009002852576683984,0.5877491779667555,0.14638459540684562,0.012016850858116409,0.17695262480391402
18.715526018811197,0.004225709835712279,0.009001021798043069,0.5886252839113408,0.14821426831319523,0.011985493106606897,0.17939190190211385
18.91877925956009,0.00405652102593216,0.008999193860479123,0.5894669790429707,0.15004356939658203,0.011953936975467195,0.1818247852750454
19.12203250030899,0.003920319513260969,0.008997367436718478,0.5902776383882349,0.15187249909957784,0.011922203060049184,0.18425123669444202
19.325285741057883,0.004075157035763338,0.008995537417207605,0.5910901916481953,0.15370105721060132,0.011890310104611503,0.1866712219299885
19.528538981806776,0.004230102738021188,0.008993706454227129,0.5919342271303368,0.15552924326834694,0.011858275208564646,0.18908471039404082
19.731792222555676,0.004384797587999785,0.008991878296888587,0.5928097303353331,0.15735705746206108,0.011826113339360728,0.1914916747578018
19.93504546330457,0.004539689532816172,0.008990047916566329,0.593716695799997,0.15918449985095717,0.011793840050685298,0.1938920907942341
20.13829870405346,0.0046775101565186,0.00898822032399373,0.5946534086537405,0.16101157049243053,0.011761469411069184,0.19628593728670643
20.34155194480236,0.00467029169813532,0.008986398511319722,0.595603394164159,0.16283827025718237,0.01172901394352539,0.19867319572099615
20.544805185551255,0.004679288920164094,0.008984567991342281,0.5965535604443152,0.1646645988477103,0.011696485687383918,0.2010538500790683
20.748058426300148,0.004833399934643638,0.008982745032069387,0.5975203028633029,0.1664905561474894,0.011663896083696302,0.20342788672912002
20.951311667049048,0.004982030691302163,0.008980979729377316,0.5985178119053377,0.16831614878433204,0.011631255695720624,0.20579529427557203
21.15456490779794,0.005127184811844328,0.00897907633905769,0.5995451773115594,0.17014136858430265,0.011598573968761853,0.20815606335624745
21.35781814854684,0.005119939311203795,0.008977247701428463,0.6005865579047424,0.17196620911088575,0.011565860282848863,0.2105101865221248
21.561071389295734,0.0051126793104267175,0.00897541540389986,0.6016264643528393,0.1737906775890013,0.01153312330518792,0.2128576581582618
21.764324630044626,0.005105428072932622,0.00897358531819284,0.6026648960728332,0.17561477387148608,0.011500370868387705,0.2151984743265368
21.967577870793527,0.005098174692652361,0.008971754691793923,0.603701853737543,0.17743849812817145,0.01146761022437309,0.21753263262181835
22.17083111154242,0.005090921682850287,0.008969924158885187,0.6047373371668548,0.17926185031360964,0.011434848571239983,0.2198601321074815
22.374084352291312,0.005083687129923475,0.008968098284089097,0.6057713482741292,0.18108483091069008,0.011402092564500057,0.22218097325479694
22.577337593040212,0.005076433290221486,0.008966267541893332,0.606803886975026,0.1829074398981437,0.011369347702137265,0.22449515777015394
22.780590833789105,0.005069183282313357,0.008964437766506272,0.6078349516989077,0.1847296768795665,0.011336619855393262,0.2268026885153576
22.983844074538,0.005061960824135165,0.008962614944226434,0.6088645456349725,0.18655154265983284,0.01130391435407151,0.22910356949053753
23.1870973152869,0.005054710277740316,0.00896078503280684,0.609892668728496,0.18837303722511822,0.011271236055607117,0.23139780573111807
23.39035055603579,0.005047460719541595,0.008958955370815062,0.6109193182253945,0.19019415988032573,0.011238589219815681,0.23368540319907857
23.593603796784684,0.005040211108834415,0.008957125695802771,0.6119444942207588,0.1920149106494807,0.011205978217770175,0.23596636873352678
23.796857037533584,0.005032956088674516,0.008955294655630225,0.6129681961595084,0.19383528939252337,0.01117340700294856,0.23824071001956634
24.000110278282477,0.005025711817885271,0.008953466328259156,0.613990424584321,0.1956552962464098,0.011140879097626956,0.24050843550203632
24.20336351903137,0.00501846727843571,0.008951637933223441,0.6150111805603157,0.19747493147995637,0.011108397867419254,0.242769554325769
24.40661675978027,0.0050112296386217135,0.008949811279764994,0.6160304647613762,0.19929419526327724,0.011075966504902342,0.2450240763020834
24.609870000529163,0.005003981557895036,0.008947981990832254,0.6170482768276145,0.20111308750552856,0.01104358794872035,0.2472720118653936
24.813123241278056,0.004996734392177759,0.008946152932953847,0.6180646157909453,0.2029316079623573,0.011011264776800757,0.24951337201074447
25.016376482026956,0.004989497691771837,0.008944326516446189,0.619079482807912,0.20474975692567837,0.010978999587634198,0.2517481682592427
25.21962972277585,0.004982251397022357,0.008942497678475596,0.6200928779670282,0.20656753441784015,0.010946794759108404,0.2539764126377273
25.42288296352475,0.004975014391984703,0.008940671184926103,0.6211048012373351,0.20838494043101327,0.010914652411699033,0.25619811763019107
25.626136204273642,0.004967762608465835,0.00893884096174723,0.6221152520610277,0.21020197482442354,0.010882574484435647,0.2584132961331802
25.829389445022535,0.004960509353169141,0.00893701036695914,0.6231242287866471,0.21201863718127603,0.010850562918490455,0.26062196143757305
26.032642685771435,0.004953252658426967,0.008935178904157405,0.6241317309150822,0.21383492737559212,0.010818619484893283,0.26282412721150644
26.235895926520328,0.004946006107692239,0.00893335000140383,0.625137759127695,0.21565084557932743,0.010786745622583515,0.2650198074493353
26.43914916726922,0.004938758646929719,0.008931520868865861,0.6261423143629037,0.21746639202929882,0.010754942864239385,0.26720901644741024
26.64240240801812,0.004931508459146866,0.008929691048094613,0.6271453962510873,0.21928156663221138,0.010723212587684104,0.2693917687978663
26.845655648767014,0.0049242602787590685,0.008927861734080403,0.6281470047191129,0.22109636936962213,0.010691556035237668,0.2715680793591146
27.048908889515907,0.004917024438980322,0.008926035534324738,0.6291471412251194,0.2229108006095227,0.01065997428181693,0.2737379632250594
27.252162130264807,0.004909800244484845,0.008924212273907753,0.6301458082067122,0.2247248609671198,0.01062846842050352,0.27590143570993136
27.4554153710137,0.004902559945842965,0.008922384949067653,0.631143005210752,0.22653855032807477,0.010597039427345757,0.2780585123382396
27.658668611762593,0.004895306665649949,0.008920554347758259,0.6321387292813576,0.2283518679463576,0.010565688154737298,0.28020920882031175
27.861921852511493,0.00488805457563197,0.00891872404696243,0.6331329792202115,0.230164813519532,0.010534415407610655,0.28235354103490407
28.065175093260386,0.0048808005944331176,0.008916893269072754,0.6341257549560727,0.23197738702965262,0.01050322194218698,0.2844915250194272
28.26842833400928,0.004873542279322783,0.00891506139725129,0.6351170558563061,0.23378958831706148,0.010472108440785648,0.2866231769574862
28.47168157475818,0.004866294337696437,0.008913232143382898,0.636106882534693,0.23560141753663977,0.010441075469435833,0.2887485131595513
28.674934815507072,0.004859044711482789,0.008911402464583822,0.6370952358742568,0.23741287491125682,0.010410123612976146,0.2908675500530516
28.878188056255972,0.004851792804074819,0.008909572209706024,0.6380821154719682,0.23922396033918356,0.01037925338785058,0.29298030417733595
